,ID,RA,Dec,k36mag,e36mag,d36mag,k45mag,e45mag,d45mag,k58mag,e58mag,d58mag,k80mag,e80mag,d80mag,k24mag,e24mag,dstArcSec,RAJ2000,DEJ2000,Jmag,eJmag,Hmag,eHmag,Kmag,eKmag,CMD1region,CMD2region,CMD3region
759,760,296.37789,-14.745410000000001,14.76,0.18,1.32,14.51,0.05,0.7,13.01,0.01,-9999.0,14.91,0.1,2.39,10.13,0.06,-9999.0,-9999.0,-9999.0,-9999.0,-9999.0,-9999.0,-9999.0,-9999.0,-9999.0,-9999,-9999,2
894,895,296.27212000000003,-14.831489999999999,14.84,0.06,0.12,14.68,0.05,0.09,14.51,0.05,0.18,14.56,0.19,0.42,12.56,-9999.0,-9999.0,-9999.0,-9999.0,-9999.0,-9999.0,-9999.0,-9999.0,-9999.0,-9999.0,-9999,-9999,2
967,968,296.25287000000003,-14.77035,14.79,0.04,0.44,14.76,0.1,0.46,14.55,0.05,0.44,14.54,0.09,0.89,12.31,-9999.0,-9999.0,-9999.0,-9999.0,-9999.0,-9999.0,-9999.0,-9999.0,-9999.0,-9999.0,-9999,-9999,2
1023,1024,296.20544,-14.744660000000001,14.78,0.04,0.06,14.81,0.06,0.0,14.69,0.03,-0.15,14.65,0.07,-0.29,12.62,-9999.0,-9999.0,-9999.0,-9999.0,-9999.0,-9999.0,-9999.0,-9999.0,-9999.0,-9999.0,-9999,-9999,2
1036,1037,296.27564,-14.774429999999999,14.86,0.06,-0.05,14.82,0.05,-0.08,14.79,0.05,-0.17,15.01,0.12,0.01,12.17,-9999.0,-9999.0,-9999.0,-9999.0,-9999.0,-9999.0,-9999.0,-9999.0,-9999.0,-9999.0,-9999,-9999,2
1060,1061,296.4196,-14.84131,15.1,0.07,0.18,14.84,0.07,0.29,14.72,0.06,0.0,15.57,0.18,0.83,12.15,-9999.0,-9999.0,-9999.0,-9999.0,-9999.0,-9999.0,-9999.0,-9999.0,-9999.0,-9999.0,-9999,-9999,2
1084,1085,296.36966,-14.78604,15.1,0.06,0.24,14.86,0.05,0.25,14.99,0.06,0.3,14.78,0.06,0.24,12.91,-9999.0,-9999.0,-9999.0,-9999.0,-9999.0,-9999.0,-9999.0,-9999.0,-9999.0,-9999.0,-9999,-9999,2
1091,1092,296.22325,-14.81971,14.8,0.08,0.2,14.86,0.09,0.26,14.83,0.06,0.41,14.8,0.05,0.13,12.66,-9999.0,-9999.0,-9999.0,-9999.0,-9999.0,-9999.0,-9999.0,-9999.0,-9999.0,-9999.0,-9999,-9999,2
1105,1106,296.22378,-14.736529999999998,14.87,0.08,1.11,14.87,0.07,1.1,15.03,0.11,1.27,15.13,0.13,1.41,11.65,-9999.0,-9999.0,-9999.0,-9999.0,-9999.0,-9999.0,-9999.0,-9999.0,-9999.0,-9999.0,-9999,-9999,2
1117,1118,296.23458999999997,-14.732339999999999,14.78,0.06,-0.01,14.88,0.05,0.08,15.41,0.1,0.43,14.89,0.1,-1.07,12.41,-9999.0,-9999.0,-9999.0,-9999.0,-9999.0,-9999.0,-9999.0,-9999.0,-9999.0,-9999.0,-9999,-9999,2
1120,1121,296.08317999999997,-14.79685,15.24,0.08,0.4,14.88,0.06,0.05,14.8,0.03,0.03,14.98,0.09,0.27,12.39,-9999.0,-9999.0,-9999.0,-9999.0,-9999.0,-9999.0,-9999.0,-9999.0,-9999.0,-9999.0,-9999,-9999,2
1130,1131,296.23334,-14.81589,14.9,0.06,0.41,14.89,0.04,0.42,14.83,0.06,0.37,14.79,0.09,0.35,12.16,-9999.0,-9999.0,-9999.0,-9999.0,-9999.0,-9999.0,-9999.0,-9999.0,-9999.0,-9999.0,-9999,-9999,2
1131,1132,296.08245,-14.74034,14.98,0.08,0.09,14.89,0.07,-0.02,14.66,0.06,-0.2,15.04,0.13,0.09,12.54,-9999.0,-9999.0,-9999.0,-9999.0,-9999.0,-9999.0,-9999.0,-9999.0,-9999.0,-9999.0,-9999,-9999,2
1136,1137,296.08051,-14.85869,15.17,0.05,0.5,14.89,0.09,0.24,14.69,0.1,0.3,14.86,0.09,0.13,12.29,-9999.0,-9999.0,-9999.0,-9999.0,-9999.0,-9999.0,-9999.0,-9999.0,-9999.0,-9999.0,-9999,-9999,2
1138,1139,296.22636,-14.826270000000001,14.87,0.08,0.98,14.9,0.08,0.91,14.19,0.08,0.21,15.1,0.11,1.18,12.59,-9999.0,-9999.0,-9999.0,-9999.0,-9999.0,-9999.0,-9999.0,-9999.0,-9999.0,-9999.0,-9999,-9999,2
1168,1169,296.21673,-14.82293,14.79,0.05,0.03,14.91,0.04,0.04,15.0,0.04,0.03,14.64,0.07,0.26,11.68,0.15,-9999.0,-9999.0,-9999.0,-9999.0,-9999.0,-9999.0,-9999.0,-9999.0,-9999.0,-9999,-9999,2
1172,1173,296.22385,-14.80525,14.87,0.07,0.04,14.92,0.07,-0.04,15.33,0.04,0.27,14.62,0.05,-0.08,12.93,-9999.0,-9999.0,-9999.0,-9999.0,-9999.0,-9999.0,-9999.0,-9999.0,-9999.0,-9999.0,-9999,-9999,2
1198,1199,296.23262,-14.815520000000001,14.86,0.08,1.34,14.93,0.08,1.41,14.54,0.12,1.08,14.73,0.09,1.29,11.92,-9999.0,-9999.0,-9999.0,-9999.0,-9999.0,-9999.0,-9999.0,-9999.0,-9999.0,-9999.0,-9999,-9999,2
1220,1221,296.36277,-14.67559,15.21,0.06,0.07,14.95,0.05,0.03,15.27,0.07,0.21,14.84,0.07,0.25,12.55,-9999.0,-9999.0,-9999.0,-9999.0,-9999.0,-9999.0,-9999.0,-9999.0,-9999.0,-9999.0,-9999,-9999,2
1242,1243,296.24363,-14.801160000000001,14.9,0.05,0.47,14.96,0.02,0.4,14.97,0.06,0.42,15.13,0.09,0.91,12.01,-9999.0,-9999.0,-9999.0,-9999.0,-9999.0,-9999.0,-9999.0,-9999.0,-9999.0,-9999.0,-9999,-9999,2
1255,1256,296.21556,-14.67363,15.0,0.05,0.02,14.97,0.05,0.03,15.05,0.05,0.17,15.07,0.04,0.39,12.85,-9999.0,-9999.0,-9999.0,-9999.0,-9999.0,-9999.0,-9999.0,-9999.0,-9999.0,-9999.0,-9999,-9999,2
1266,1267,296.2131,-14.850810000000001,15.26,0.07,0.06,14.98,0.08,0.07,15.29,0.06,0.18,15.12,0.07,0.05,12.73,-9999.0,-9999.0,-9999.0,-9999.0,-9999.0,-9999.0,-9999.0,-9999.0,-9999.0,-9999.0,-9999,-9999,2
1267,1268,296.23901,-14.79064,14.92,0.05,0.17,14.98,0.04,0.14,14.86,0.05,-0.01,14.93,0.06,0.02,12.36,-9999.0,-9999.0,-9999.0,-9999.0,-9999.0,-9999.0,-9999.0,-9999.0,-9999.0,-9999.0,-9999,-9999,2
1303,1304,296.36998,-14.83565,15.07,0.06,0.2,15.0,0.04,0.08,14.73,0.05,-0.09,14.87,0.06,-0.23,13.28,-9999.0,-9999.0,-9999.0,-9999.0,-9999.0,-9999.0,-9999.0,-9999.0,-9999.0,-9999.0,-9999,-9999,2
1305,1306,296.16446,-14.70819,15.71,0.14,1.6,15.01,0.08,0.72,15.25,0.11,1.66,15.7,0.11,2.43,10.61,0.08,-9999.0,-9999.0,-9999.0,-9999.0,-9999.0,-9999.0,-9999.0,-9999.0,-9999.0,-9999,-9999,2
1313,1314,296.32086,-14.794989999999999,15.0,0.08,0.26,15.01,0.06,0.21,14.91,0.04,-0.25,14.98,0.07,0.75,10.82,0.09,-9999.0,-9999.0,-9999.0,-9999.0,-9999.0,-9999.0,-9999.0,-9999.0,-9999.0,-9999,-9999,2
1318,1319,296.39895,-14.86536,15.34,0.05,0.26,15.02,0.1,-0.06,15.03,0.06,-0.18,15.49,0.07,0.41,12.51,-9999.0,-9999.0,-9999.0,-9999.0,-9999.0,-9999.0,-9999.0,-9999.0,-9999.0,-9999.0,-9999,-9999,2
1335,1336,296.26212000000004,-14.707529999999998,14.97,0.05,-0.01,15.03,0.06,0.0,15.28,0.06,0.31,14.67,0.06,-0.32,12.54,-9999.0,-9999.0,-9999.0,-9999.0,-9999.0,-9999.0,-9999.0,-9999.0,-9999.0,-9999.0,-9999,-9999,2
1342,1343,296.20142000000004,-14.86709,14.94,0.07,0.13,15.03,0.06,0.16,14.94,0.05,0.33,15.02,0.07,-0.13,11.81,-9999.0,-9999.0,-9999.0,-9999.0,-9999.0,-9999.0,-9999.0,-9999.0,-9999.0,-9999.0,-9999,-9999,2
1344,1345,296.24019,-14.77731,14.77,0.05,0.29,15.03,0.05,0.49,14.99,0.11,0.43,14.92,0.05,0.45,12.26,-9999.0,-9999.0,-9999.0,-9999.0,-9999.0,-9999.0,-9999.0,-9999.0,-9999.0,-9999.0,-9999,-9999,2
1349,1350,296.23364,-14.85631,15.04,0.05,0.09,15.04,0.06,0.07,15.0,0.04,0.15,14.66,0.06,-0.41,13.17,-9999.0,-9999.0,-9999.0,-9999.0,-9999.0,-9999.0,-9999.0,-9999.0,-9999.0,-9999.0,-9999,-9999,2
1364,1365,296.31281,-14.68234,14.98,0.05,0.22,15.05,0.07,0.25,14.96,0.05,0.23,14.98,0.06,0.05,12.33,-9999.0,-9999.0,-9999.0,-9999.0,-9999.0,-9999.0,-9999.0,-9999.0,-9999.0,-9999.0,-9999,-9999,2
1391,1392,296.18762000000004,-14.791429999999998,15.27,0.06,0.23,15.07,0.04,0.01,15.07,0.06,-0.13,15.61,0.09,0.43,12.33,-9999.0,-9999.0,-9999.0,-9999.0,-9999.0,-9999.0,-9999.0,-9999.0,-9999.0,-9999.0,-9999,-9999,2
1398,1399,296.42421,-14.89229,15.29,0.07,0.09,15.08,0.07,0.16,15.22,0.07,0.37,15.08,0.14,1.75,11.26,0.15,-9999.0,-9999.0,-9999.0,-9999.0,-9999.0,-9999.0,-9999.0,-9999.0,-9999.0,-9999,-9999,2
1410,1411,296.21719,-14.781410000000001,15.07,0.03,0.17,15.09,0.04,0.17,15.06,0.06,0.12,15.19,0.07,0.44,11.15,0.1,-9999.0,-9999.0,-9999.0,-9999.0,-9999.0,-9999.0,-9999.0,-9999.0,-9999.0,-9999,-9999,2
1421,1422,296.22286,-14.729439999999999,15.26,0.05,-0.06,15.09,0.09,-0.1,14.71,0.04,-0.03,14.87,0.06,-0.37,10.71,-9999.0,-9999.0,-9999.0,-9999.0,-9999.0,-9999.0,-9999.0,-9999.0,-9999.0,-9999.0,-9999,-9999,2
1445,1446,296.24112,-14.792779999999999,15.15,0.05,0.24,15.11,0.05,0.17,15.12,0.04,-0.17,14.69,0.06,-9999.0,10.27,-9999.0,-9999.0,-9999.0,-9999.0,-9999.0,-9999.0,-9999.0,-9999.0,-9999.0,-9999.0,-9999,-9999,2
1457,1458,296.25222,-14.743260000000001,15.3,0.06,0.01,15.12,0.06,-0.04,14.93,0.08,0.0,14.94,0.1,-0.25,12.56,-9999.0,-9999.0,-9999.0,-9999.0,-9999.0,-9999.0,-9999.0,-9999.0,-9999.0,-9999.0,-9999,-9999,2
1469,1470,296.07805,-14.72585,15.25,0.05,0.2,15.12,0.03,0.1,15.08,0.05,0.12,14.94,0.07,0.12,12.31,0.27,-9999.0,-9999.0,-9999.0,-9999.0,-9999.0,-9999.0,-9999.0,-9999.0,-9999.0,-9999,-9999,2
1487,1488,296.20968,-14.828879999999998,15.13,0.09,0.32,15.13,0.1,0.3,15.51,0.05,0.76,14.99,0.06,0.28,12.02,-9999.0,-9999.0,-9999.0,-9999.0,-9999.0,-9999.0,-9999.0,-9999.0,-9999.0,-9999.0,-9999,-9999,2
1489,1490,296.1331,-14.90316,15.05,0.06,0.0,15.13,0.09,0.08,15.02,0.08,0.09,15.03,0.06,-0.56,11.52,0.27,-9999.0,-9999.0,-9999.0,-9999.0,-9999.0,-9999.0,-9999.0,-9999.0,-9999.0,-9999,-9999,2
1497,1498,296.09866,-14.696639999999999,15.4,0.12,0.61,15.14,0.1,0.58,15.35,0.08,0.56,15.17,0.07,0.82,12.31,-9999.0,-9999.0,-9999.0,-9999.0,-9999.0,-9999.0,-9999.0,-9999.0,-9999.0,-9999.0,-9999,-9999,2
1505,1506,296.24712,-14.77079,15.0,0.04,0.14,15.14,0.06,0.17,15.06,0.05,0.06,14.75,0.06,0.16,13.47,-9999.0,-9999.0,-9999.0,-9999.0,-9999.0,-9999.0,-9999.0,-9999.0,-9999.0,-9999.0,-9999,-9999,2
1532,1533,296.24421,-14.741629999999999,15.35,0.04,0.04,15.16,0.04,-0.04,15.08,0.04,-0.17,14.83,0.06,0.02,13.56,-9999.0,-9999.0,-9999.0,-9999.0,-9999.0,-9999.0,-9999.0,-9999.0,-9999.0,-9999.0,-9999,-9999,2
1535,1536,296.2193,-14.73214,15.09,0.03,0.04,15.16,0.04,0.01,15.27,0.05,-0.13,16.11,0.11,0.72,11.38,-9999.0,-9999.0,-9999.0,-9999.0,-9999.0,-9999.0,-9999.0,-9999.0,-9999.0,-9999.0,-9999,-9999,2
1537,1538,296.35117,-14.72065,15.11,0.04,0.06,15.16,0.05,0.01,15.04,0.07,-0.37,14.68,0.04,-0.05,11.73,0.11,-9999.0,-9999.0,-9999.0,-9999.0,-9999.0,-9999.0,-9999.0,-9999.0,-9999.0,-9999,-9999,2
1542,1543,296.22492,-14.712029999999999,15.19,0.04,0.44,15.16,0.07,0.43,14.97,0.06,0.1,14.94,0.06,0.08,9.81,-9999.0,-9999.0,-9999.0,-9999.0,-9999.0,-9999.0,-9999.0,-9999.0,-9999.0,-9999.0,-9999,-9999,2
1543,1544,296.25154,-14.829120000000001,15.09,0.05,0.62,15.16,0.05,0.47,15.12,0.03,0.47,14.84,0.06,0.58,11.89,-9999.0,-9999.0,-9999.0,-9999.0,-9999.0,-9999.0,-9999.0,-9999.0,-9999.0,-9999.0,-9999,-9999,2
1550,1551,296.32049,-14.743720000000001,15.05,0.04,0.12,15.17,0.07,0.17,14.77,0.04,-0.3,15.13,0.08,0.25,12.35,-9999.0,-9999.0,-9999.0,-9999.0,-9999.0,-9999.0,-9999.0,-9999.0,-9999.0,-9999.0,-9999,-9999,2
1551,1552,296.23466,-14.76764,15.07,0.05,0.02,15.17,0.04,-0.02,15.16,0.04,-0.2,15.03,0.09,-0.06,12.28,-9999.0,-9999.0,-9999.0,-9999.0,-9999.0,-9999.0,-9999.0,-9999.0,-9999.0,-9999.0,-9999,-9999,2
1557,1558,296.24647999999996,-14.8359,15.35,0.11,0.3,15.17,0.07,0.09,15.44,0.1,0.26,15.1,0.09,0.06,12.51,-9999.0,-9999.0,-9999.0,-9999.0,-9999.0,-9999.0,-9999.0,-9999.0,-9999.0,-9999.0,-9999,-9999,2
1565,1566,296.21882,-14.812879999999998,15.12,0.05,0.19,15.18,0.09,0.15,14.85,0.04,0.13,15.05,0.14,0.7,12.25,-9999.0,-9999.0,-9999.0,-9999.0,-9999.0,-9999.0,-9999.0,-9999.0,-9999.0,-9999.0,-9999,-9999,2
1574,1575,296.21276,-14.74405,14.92,0.06,0.18,15.18,0.06,0.35,15.19,0.07,0.3,15.07,0.07,0.31,12.15,-9999.0,-9999.0,-9999.0,-9999.0,-9999.0,-9999.0,-9999.0,-9999.0,-9999.0,-9999.0,-9999,-9999,2
1583,1584,296.21716000000004,-14.83443,15.06,0.05,-0.01,15.19,0.07,0.13,14.79,0.07,-0.11,14.82,0.07,-0.03,10.5,0.06,-9999.0,-9999.0,-9999.0,-9999.0,-9999.0,-9999.0,-9999.0,-9999.0,-9999.0,-9999,-9999,2
1585,1586,296.22129,-14.79711,14.93,0.07,0.15,15.19,0.08,0.34,14.92,0.04,-0.03,14.69,0.07,0.13,12.31,-9999.0,-9999.0,-9999.0,-9999.0,-9999.0,-9999.0,-9999.0,-9999.0,-9999.0,-9999.0,-9999,-9999,2
1601,1602,296.26286,-14.724720000000001,15.47,0.04,0.49,15.2,0.1,0.28,15.55,0.08,0.73,14.82,0.11,0.42,9.37,0.02,-9999.0,-9999.0,-9999.0,-9999.0,-9999.0,-9999.0,-9999.0,-9999.0,-9999.0,-9999,-9999,2
1607,1608,296.3013,-14.74724,15.49,0.08,0.12,15.2,0.08,0.1,15.24,0.06,0.12,15.33,0.08,0.28,12.13,-9999.0,-9999.0,-9999.0,-9999.0,-9999.0,-9999.0,-9999.0,-9999.0,-9999.0,-9999.0,-9999,-9999,2
1617,1618,296.29233999999997,-14.787770000000002,15.44,0.06,0.74,15.21,0.11,0.46,15.26,0.08,0.85,15.47,0.09,1.37,11.89,0.3,-9999.0,-9999.0,-9999.0,-9999.0,-9999.0,-9999.0,-9999.0,-9999.0,-9999.0,-9999,-9999,2
1621,1622,296.22538,-14.73993,15.65,0.17,2.24,15.21,0.08,1.73,15.34,0.1,2.18,15.7,0.21,3.02,12.15,0.3,-9999.0,-9999.0,-9999.0,-9999.0,-9999.0,-9999.0,-9999.0,-9999.0,-9999.0,-9999,-9999,2
1622,1623,296.22026,-14.84489,15.34,0.06,0.23,15.21,0.08,0.06,15.31,0.05,0.17,15.35,0.21,0.14,12.59,0.19,-9999.0,-9999.0,-9999.0,-9999.0,-9999.0,-9999.0,-9999.0,-9999.0,-9999.0,-9999,-9999,2
1625,1626,296.2693,-14.7025,15.41,0.04,0.05,15.21,0.06,-0.08,15.11,0.04,-0.05,15.4,0.07,-0.18,12.13,0.23,-9999.0,-9999.0,-9999.0,-9999.0,-9999.0,-9999.0,-9999.0,-9999.0,-9999.0,-9999,-9999,2
1632,1633,296.24532999999997,-14.79075,15.25,0.05,0.14,15.22,0.05,0.1,14.96,0.06,-0.13,14.74,0.09,-9999.0,10.87,0.1,-9999.0,-9999.0,-9999.0,-9999.0,-9999.0,-9999.0,-9999.0,-9999.0,-9999.0,-9999,-9999,2
1652,1653,296.19133999999997,-14.81864,15.35,0.06,0.19,15.23,0.05,0.05,15.0,0.05,-0.03,14.92,0.05,0.1,12.37,-9999.0,-9999.0,-9999.0,-9999.0,-9999.0,-9999.0,-9999.0,-9999.0,-9999.0,-9999.0,-9999,-9999,2
1666,1667,296.27122,-14.790339999999999,15.18,0.06,-0.01,15.24,0.04,-0.08,15.54,0.18,0.44,15.21,0.22,0.58,12.03,-9999.0,-9999.0,-9999.0,-9999.0,-9999.0,-9999.0,-9999.0,-9999.0,-9999.0,-9999.0,-9999,-9999,2
1690,1691,296.2878,-14.799710000000001,15.25,0.07,0.1,15.26,0.07,0.08,15.09,0.05,-0.08,15.24,0.08,0.32,12.83,-9999.0,-9999.0,-9999.0,-9999.0,-9999.0,-9999.0,-9999.0,-9999.0,-9999.0,-9999.0,-9999,-9999,2
1691,1692,296.23013,-14.743479999999998,15.16,0.06,0.13,15.26,0.05,0.13,15.24,0.12,0.05,14.87,0.06,0.05,12.3,-9999.0,-9999.0,-9999.0,-9999.0,-9999.0,-9999.0,-9999.0,-9999.0,-9999.0,-9999.0,-9999,-9999,2
1700,1701,296.36,-14.79031,15.22,0.07,1.27,15.26,0.05,1.32,15.34,0.1,1.49,15.04,0.12,1.19,12.35,0.24,-9999.0,-9999.0,-9999.0,-9999.0,-9999.0,-9999.0,-9999.0,-9999.0,-9999.0,-9999,-9999,2
1702,1703,296.03848,-14.69709,15.5,0.1,0.1,15.27,0.05,0.09,14.86,0.07,-0.04,15.22,0.11,0.34,12.03,-9999.0,-9999.0,-9999.0,-9999.0,-9999.0,-9999.0,-9999.0,-9999.0,-9999.0,-9999.0,-9999,-9999,2
1705,1706,296.36067,-14.927660000000001,15.23,0.06,0.37,15.27,0.08,0.36,15.32,0.06,0.6,14.98,0.07,0.13,13.44,-9999.0,-9999.0,-9999.0,-9999.0,-9999.0,-9999.0,-9999.0,-9999.0,-9999.0,-9999.0,-9999,-9999,2
1712,1713,296.35105,-14.75709,15.27,0.04,0.71,15.27,0.07,0.72,14.96,0.06,0.81,14.86,0.1,1.31,12.4,-9999.0,-9999.0,-9999.0,-9999.0,-9999.0,-9999.0,-9999.0,-9999.0,-9999.0,-9999.0,-9999,-9999,2
1724,1725,296.28681,-14.8471,15.19,0.04,0.14,15.28,0.05,0.16,15.11,0.05,0.17,14.95,0.06,-0.17,12.45,-9999.0,-9999.0,-9999.0,-9999.0,-9999.0,-9999.0,-9999.0,-9999.0,-9999.0,-9999.0,-9999,-9999,2
1726,1727,296.2409,-14.71935,15.43,0.07,0.13,15.28,0.06,0.09,15.29,0.05,-0.04,15.22,0.08,0.14,12.86,-9999.0,-9999.0,-9999.0,-9999.0,-9999.0,-9999.0,-9999.0,-9999.0,-9999.0,-9999.0,-9999,-9999,2
1733,1734,296.24144,-14.84612,15.51,0.03,0.01,15.28,0.05,-0.05,15.03,0.07,-0.04,15.07,0.11,-0.04,12.41,-9999.0,-9999.0,-9999.0,-9999.0,-9999.0,-9999.0,-9999.0,-9999.0,-9999.0,-9999.0,-9999,-9999,2
1746,1747,296.26031,-14.8321,15.28,0.06,0.78,15.29,0.07,0.65,15.15,0.04,0.55,15.09,0.06,0.75,11.76,0.26,-9999.0,-9999.0,-9999.0,-9999.0,-9999.0,-9999.0,-9999.0,-9999.0,-9999.0,-9999,-9999,2
1755,1756,296.28134,-14.803529999999999,15.06,0.07,0.03,15.3,0.03,0.05,15.18,0.03,0.0,14.91,0.08,0.12,12.09,-9999.0,-9999.0,-9999.0,-9999.0,-9999.0,-9999.0,-9999.0,-9999.0,-9999.0,-9999.0,-9999,-9999,2
1763,1764,296.27472,-14.77568,15.26,0.05,0.04,15.3,0.05,0.05,15.29,0.07,-0.06,15.25,0.08,-0.3,12.41,-9999.0,-9999.0,-9999.0,-9999.0,-9999.0,-9999.0,-9999.0,-9999.0,-9999.0,-9999.0,-9999,-9999,2
1765,1766,296.2365,-14.78471,15.4,0.05,0.06,15.31,0.03,-0.04,15.6,0.11,0.39,15.28,0.07,-0.14,12.32,-9999.0,-9999.0,-9999.0,-9999.0,-9999.0,-9999.0,-9999.0,-9999.0,-9999.0,-9999.0,-9999,-9999,2
1839,1840,296.19765,-14.715629999999999,15.2,0.04,0.06,15.35,0.07,0.05,15.32,0.1,-0.06,14.86,0.1,0.0,12.7,-9999.0,-9999.0,-9999.0,-9999.0,-9999.0,-9999.0,-9999.0,-9999.0,-9999.0,-9999.0,-9999,-9999,2
1851,1852,296.20538,-14.7174,15.41,0.05,0.1,15.36,0.06,0.05,15.05,0.07,0.02,15.4,0.1,1.12,10.53,0.12,-9999.0,-9999.0,-9999.0,-9999.0,-9999.0,-9999.0,-9999.0,-9999.0,-9999.0,-9999,-9999,2
1854,1855,296.20608,-14.794039999999999,15.23,0.04,0.02,15.36,0.06,0.01,15.34,0.07,-0.13,15.24,0.1,-0.01,12.43,-9999.0,-9999.0,-9999.0,-9999.0,-9999.0,-9999.0,-9999.0,-9999.0,-9999.0,-9999.0,-9999,-9999,2
1855,1856,296.20317,-14.788,15.31,0.04,-0.03,15.36,0.04,0.03,15.46,0.06,0.13,15.28,0.11,-0.37,12.38,-9999.0,-9999.0,-9999.0,-9999.0,-9999.0,-9999.0,-9999.0,-9999.0,-9999.0,-9999.0,-9999,-9999,2
1857,1858,296.25279,-14.76999,15.47,0.08,1.2,15.36,0.08,1.25,15.26,0.1,1.52,14.95,0.11,1.68,11.43,0.16,-9999.0,-9999.0,-9999.0,-9999.0,-9999.0,-9999.0,-9999.0,-9999.0,-9999.0,-9999,-9999,2
1858,1859,296.26392999999996,-14.87585,15.33,0.04,0.09,15.36,0.05,0.05,15.29,0.05,-0.06,15.76,0.12,0.34,12.19,-9999.0,-9999.0,-9999.0,-9999.0,-9999.0,-9999.0,-9999.0,-9999.0,-9999.0,-9999.0,-9999,-9999,2
1866,1867,296.2079,-14.70863,15.75,0.11,0.85,15.37,0.15,0.6,14.86,0.07,0.08,14.98,0.07,0.42,11.94,-9999.0,-9999.0,-9999.0,-9999.0,-9999.0,-9999.0,-9999.0,-9999.0,-9999.0,-9999.0,-9999,-9999,2
1873,1874,296.37516,-14.66146,15.99,0.06,0.54,15.37,0.03,0.14,15.8,0.09,0.16,15.34,0.1,0.2,12.58,-9999.0,-9999.0,-9999.0,-9999.0,-9999.0,-9999.0,-9999.0,-9999.0,-9999.0,-9999.0,-9999,-9999,2
1877,1878,296.21782,-14.836929999999999,15.23,0.05,0.25,15.37,0.04,0.24,15.31,0.09,0.02,15.4,0.11,0.34,12.35,-9999.0,-9999.0,-9999.0,-9999.0,-9999.0,-9999.0,-9999.0,-9999.0,-9999.0,-9999.0,-9999,-9999,2
1879,1880,296.16202999999996,-14.7577,15.7,0.07,0.24,15.38,0.08,0.11,15.43,0.05,0.07,15.45,0.08,0.0,12.11,-9999.0,-9999.0,-9999.0,-9999.0,-9999.0,-9999.0,-9999.0,-9999.0,-9999.0,-9999.0,-9999,-9999,2
1882,1883,296.21477999999996,-14.811179999999998,15.23,0.03,-0.02,15.38,0.05,0.14,14.97,0.04,-0.1,14.76,0.06,-0.48,11.83,-9999.0,-9999.0,-9999.0,-9999.0,-9999.0,-9999.0,-9999.0,-9999.0,-9999.0,-9999.0,-9999,-9999,2
1891,1892,296.34801,-14.65801,15.31,0.08,0.79,15.38,0.05,0.8,14.98,0.08,0.72,15.06,0.06,1.24,11.89,0.28,-9999.0,-9999.0,-9999.0,-9999.0,-9999.0,-9999.0,-9999.0,-9999.0,-9999.0,-9999,-9999,2
1895,1896,296.24097,-14.78045,15.45,0.06,0.1,15.38,0.04,0.05,15.44,0.06,-0.1,14.98,0.08,-0.09,11.99,0.17,-9999.0,-9999.0,-9999.0,-9999.0,-9999.0,-9999.0,-9999.0,-9999.0,-9999.0,-9999,-9999,2
1897,1898,296.28751,-14.803410000000001,15.41,0.04,0.96,15.38,0.04,1.04,15.19,0.06,1.24,15.59,0.15,1.64,11.27,0.23,-9999.0,-9999.0,-9999.0,-9999.0,-9999.0,-9999.0,-9999.0,-9999.0,-9999.0,-9999,-9999,2
1904,1905,296.27923,-14.833870000000001,15.44,0.06,0.01,15.39,0.04,0.02,15.19,0.05,-0.02,14.82,0.06,-0.13,11.89,-9999.0,-9999.0,-9999.0,-9999.0,-9999.0,-9999.0,-9999.0,-9999.0,-9999.0,-9999.0,-9999,-9999,2
1915,1916,296.28841,-14.75176,15.46,0.04,0.79,15.39,0.06,0.89,15.29,0.06,1.01,15.23,0.11,1.17,11.27,0.12,-9999.0,-9999.0,-9999.0,-9999.0,-9999.0,-9999.0,-9999.0,-9999.0,-9999.0,-9999,-9999,2
1930,1931,296.36492000000004,-14.6655,15.41,0.06,0.07,15.4,0.08,0.23,15.47,0.11,0.13,15.27,0.11,0.59,12.47,-9999.0,-9999.0,-9999.0,-9999.0,-9999.0,-9999.0,-9999.0,-9999.0,-9999.0,-9999.0,-9999,-9999,2
1933,1934,296.22174,-14.80984,15.59,0.09,0.68,15.4,0.09,0.3,15.51,0.05,0.33,15.17,0.12,0.44,12.25,-9999.0,-9999.0,-9999.0,-9999.0,-9999.0,-9999.0,-9999.0,-9999.0,-9999.0,-9999.0,-9999,-9999,2
1938,1939,296.23881,-14.81908,15.28,0.07,0.1,15.4,0.04,0.17,15.19,0.04,0.16,15.29,0.08,0.14,12.16,-9999.0,-9999.0,-9999.0,-9999.0,-9999.0,-9999.0,-9999.0,-9999.0,-9999.0,-9999.0,-9999,-9999,2
1940,1941,296.20314,-14.915729999999998,15.68,0.09,0.71,15.4,0.06,0.5,16.27,0.16,1.47,15.06,0.1,0.36,13.21,-9999.0,-9999.0,-9999.0,-9999.0,-9999.0,-9999.0,-9999.0,-9999.0,-9999.0,-9999.0,-9999,-9999,2
1941,1942,296.22573,-14.74085,15.9,0.1,1.73,15.41,0.15,1.0,15.18,0.08,1.36,15.21,0.19,2.01,11.65,0.3,-9999.0,-9999.0,-9999.0,-9999.0,-9999.0,-9999.0,-9999.0,-9999.0,-9999.0,-9999,-9999,2
1945,1946,296.22762,-14.74126,15.85,0.15,1.76,15.41,0.14,1.03,15.25,0.12,1.56,15.79,0.09,2.73,12.21,-9999.0,-9999.0,-9999.0,-9999.0,-9999.0,-9999.0,-9999.0,-9999.0,-9999.0,-9999.0,-9999,-9999,2
1959,1960,296.36989,-14.786760000000001,15.76,0.04,0.66,15.42,0.07,0.48,15.46,0.06,0.46,15.25,0.11,0.42,12.78,-9999.0,-9999.0,-9999.0,-9999.0,-9999.0,-9999.0,-9999.0,-9999.0,-9999.0,-9999.0,-9999,-9999,2
